wave flux
90.9000015258789 3.9350412207245367e-13
93.5 1.6974220434141633e-12
96.0999984741211 6.749018903659223e-12
97.69999694824219 1.5411523848699515e-11
99.5999984741211 3.9489140331624325e-11
102.0 1.235699182485921e-10
103.80000305175781 2.8183810557265364e-10
105.5999984741211 6.257007841680172e-10
107.69999694824219 1.5371534686267277e-09
110.4000015258789 4.658203590239032e-09
114.0 1.8900417634159864e-08
117.80000305175781 7.612962551090109e-08
121.30000305175781 2.556115222250252e-07
124.80000305175781 8.046920226417863e-07
127.0999984741211 1.6553837003296583e-06
128.39999389648438 2.4632799728220747e-06
130.5 4.602551995759708e-06
132.39999389648438 7.979586237336447e-06
133.89999389648438 1.2209302265094233e-05
136.60000610351562 2.5612843611508085e-05
139.8000030517578 5.98805599525056e-05
143.3000030517578 0.00014510427704884468
147.1999969482422 0.00036844181679468035
151.0 0.0008925164399145971
155.1999969482422 0.002241441637216682
158.8000030517578 0.004762800238510396
162.0 0.009034544275650529
166.0 0.019658867418009995
170.3000030517578 0.0433484605586611
173.39999389648438 0.07516848308354221
176.8000030517578 0.1349891125876484
180.1999969482422 0.2365504601171458
181.6999969482422 0.3014768155122632
186.10000610351562 0.6006954409401153
191.0 1.248088044663374
193.89999389648438 1.8951577302806026
198.39999389648438 3.5358182140787497
201.8000030517578 5.545260299290043
205.0 8.379369896933955
210.5 16.55660258118316
216.1999969482422 32.17105976578064
219.8000030517578 48.52096449160724
223.0 68.76199733708854
226.8000030517578 102.81620367894828
230.0 121675.33962777631
234.0 314731.8044557469
240.0 439943.02589074854
246.5 650120.1974887146
252.39999389648438 1054345.3581388867
256.79998779296875 1389702.2140290353
260.0 2055210.7785462586
264.0 4961432.376154979
268.5 7708163.748511922
273.5 9454081.89910721
278.5 9423692.294424122
284.0 19028370.74335723
290.0 25506583.021322444
296.0 28181902.056370296
301.0 51292560.217543386
308.0 193955111.19986513
318.0 271868196.1674161
328.0 457281017.44281423
338.0 629366602.7554946
348.0 832620970.8986522
357.0 1933192813.5710173
366.0 4198952233.171323
375.0 5089161886.721285
385.0 5227132305.448824
395.0 9060134156.316315
405.0 13316983324.041153
414.0 12801370400.637793
422.0 13007291933.809864
430.0 12028893870.03692
441.0 14333925696.38563
451.0 14576538423.695072
460.0 12525034523.566156
470.0 13407955905.955013
480.0 15516171872.016293
490.0 11806956117.288097
500.0 15989574641.036201
506.0 15541906264.060158
512.0 45061842602.02675
520.0 42069100654.8182
530.0 37177939791.656
540.0 33008200422.24226
550.0 31397440376.129498
560.0 43474160607.1968
570.0 50345299718.28182
580.0 47528299133.4666
590.0 48344517339.98958
600.0 36254021428.689415
610.0 39810798598.82671
620.0 51830896734.60671
630.0 48919422488.6421
640.0 52968919597.681526
650.0 49681301339.85944
658.0 40638261327.739815
665.0 49409801574.9032
675.0 55095144152.32745
685.0 43042582017.69033
695.0 53482160813.872154
705.0 41108739543.005806
716.0 55553338459.10286
726.0 55022003388.2575
735.0 55499399192.13028
745.0 50485476704.43565
755.0 50080760741.16651
765.0 46477476692.16835
775.0 50148722383.00382
785.0 46487022586.52028
795.0 50262900369.18923
805.0 48772821364.15387
815.0 48640299303.53216
825.0 49664243533.117134
835.0 40157340641.72534
845.0 47262199250.909904
855.0 45766540826.56933
865.0 47282362208.14891
875.0 46957481659.68218
885.0 46401579656.181786
895.0 45948038745.306404
905.0 44388363138.29075
915.0 39747140616.536995
925.0 74464923450.27037
935.0 102211367607.31816
945.0 112842406917.78416
955.0 120741601743.22845
965.0 128191997985.63078
975.0 85426278443.01314
985.0 110254200524.27267
995.0 99863818592.084
1005.0 99654542627.4126
1015.0 103828083492.47166
1025.0 93945078801.44707
1035.0 103771384772.01051
1045.0 109206191378.23671
1055.0 105492341229.73218
1065.0 98379256846.92653
1075.0 97932185258.7401
1085.0 92017297731.53845
1095.0 94313925281.07968
1105.0 91015176951.44682
1115.0 88990456620.07062
1125.0 81203203198.99825
1135.0 86299119506.49355
1145.0 85150137855.11629
1155.0 79659437552.18135
1165.0 76923462932.73618
1175.0 60478799986.88859
1185.0 70893539699.9252
1195.0 68486384247.42076
1205.0 67046304784.29428
1215.0 58103936661.04977
1225.0 63449222655.620804
1235.0 65375922963.48019
1245.0 63613399769.60109
1255.0 63172142505.67994
1265.0 63988522151.742035
1275.0 64767422814.56367
1285.0 64115063510.76229
1295.0 62304744653.471176
1305.0 60606318086.89248
1315.0 61561681533.83347
1325.0 60055382699.095116
1335.0 58491600042.77989
1345.0 58397979315.18094
1355.0 55920738641.64218
1365.0 54319642532.45981
1375.0 52499802227.972435
1385.0 51650898425.27682
1395.0 47370101663.10637
1405.0 45778142397.00614
1415.0 49770822628.38125
1425.0 45190899542.130486
1435.0 47217201540.404915
1442.0 45888700769.97569
1447.0 45796183369.7851
1455.0 43957441596.31856
1465.0 43597362156.033005
1475.0 43319963446.306114
1485.0 43357439899.92685
1495.0 41995001979.11772
1505.0 41843660305.88426
1512.0 41369880098.30165
1517.0 41032557699.706024
1525.0 39938701358.769775
1535.0 36248704511.5338
1545.0 29855479330.560905
1555.0 30569099183.905315
1565.0 33882721129.814083
1575.0 35062720597.31773
1585.0 34800362883.62794
1595.0 34489099236.67937
1605.0 32400439761.105587
1615.0 31319182066.043224
1625.0 31639262016.86565
1635.0 31544301336.199444
1645.0 30824462494.51504
1655.0 31380599979.236103
1665.0 30748162709.2243
1672.0 28710680058.22665
1677.0 32062021324.99233
1685.0 30964459947.565586
1695.0 30238160081.24973
1705.0 29663281474.31452
1715.0 28373360175.403133
1725.0 27783280132.25368
1735.0 28513278565.384365
1745.0 28128322888.165165
1755.0 27445882914.884235
1765.0 27158402505.74125
1775.0 26468401952.44566
1785.0 26524700098.736267
1795.0 25741001262.82633
1805.0 25517299504.353928
1815.0 25057299872.244534
1825.0 24522341719.552788
1835.0 24474860407.201004
1845.0 24013519697.764057
1855.0 23823599575.542088
1865.0 23531161650.706272
1875.0 22904939195.420033
1885.0 22407380713.532597
1895.0 22421078995.500164
1905.0 22294940085.63453
1915.0 21893680782.46265
1925.0 20833679816.378895
1935.0 21362499040.642727
1945.0 21162579436.468594
1955.0 20069981845.08005
1967.0 20315099163.428642
1976.0 20135180074.27876
1984.0 19928880201.974995
1995.0 19436362026.429714
2005.0 19468959821.026382
2015.0 19184001530.477325
2025.0 18897779222.589443
2035.0 18525259235.470707
2045.0 18170299594.403194
2055.0 14084400359.699705
2065.0 13624400013.974485
2074.0 14143140186.605152
2078.0 14430540829.916512
2085.0 15754160428.514805
2095.0 16662820308.859228
2105.0 16522900282.86281
2115.0 16565420248.580431
2125.0 16206679114.667343
2135.0 16089200122.159138
2145.0 15849200388.505232
2155.0 15810459704.8377
2165.0 15066761235.632471
2175.0 15402981132.961184
2185.0 14868019794.824368
2195.0 15056759788.355478
2205.0 14819280636.472355
2215.0 14244320715.370132
2225.0 14370540515.869347
2235.0 14181800128.470718
2245.0 13933060725.325499
2255.0 13486840125.924082
2265.0 13566839647.014833
2275.0 13418100426.771133
2285.0 13118099823.60304
2295.0 12448020819.823929
2305.0 12531880485.223019
2315.0 12533140036.999792
2325.0 12453139620.423044
2335.0 12283139699.464666
2345.0 12065660869.328146
2355.0 11846919824.589846
2365.0 11666920529.617361
2375.0 11439439063.579485
2385.0 10953219811.46944
2395.0 11050700208.937592
2405.0 10983220157.234175
2415.0 10853219798.749468
2425.0 10783220814.357494
2435.0 10604480428.783556
2445.0 10475740411.532177
2455.0 10297882621.660444
2465.0 10178008267.004356
2475.0 10077125924.429928
2485.0 9826757162.629002
2495.0 8134077499.408043
2505.0 9517126435.554445
2513.0 9081929855.428122
2518.0 9286157960.67751
2525.0 9364300320.457664
2535.0 9303047726.644197
2545.0 9185670133.55579
2555.0 9050804683.792418
2565.0 8944559331.350815
2575.0 8820567751.95963
2585.0 8712198569.01727
2595.0 8517970211.7872505
2605.0 8499087954.272926
2615.0 8337347956.386311
2625.0 8281096242.576573
2635.0 8192978068.017478
2645.0 8058734310.008442
2655.0 7976985923.047312
2665.0 7856986513.354399
2675.0 7677994656.294235
2685.0 7660254144.366619
2695.0 7545876155.128971
2705.0 7497128275.311633
2715.0 7375884397.574787
2725.0 7294640749.427845
2735.0 7064285772.826526
2745.0 7139026214.157549
2755.0 7038908096.556056
2765.0 6942908406.937027
2775.0 6874293879.928714
2785.0 6761176139.43558
2795.0 6625168017.123142
2805.0 6605302461.166024
2815.0 6539309910.292344
2825.0 6451813427.531029
2835.0 6377687826.574456
2845.0 6320570143.910803
2855.0 6239948395.946241
2865.0 6142451506.441705
2875.0 6076208122.888654
2885.0 6012459750.345182
2895.0 5941838148.748859
2910.0 5825215956.925177
2930.0 5707349948.362856
2950.0 5566602015.613793
2970.0 5429987933.683853
2990.0 5278744181.072252
3010.0 5159248072.56976
3030.0 5016508033.401626
3050.0 4929012436.41966
3070.0 4823272027.808009
3090.0 4723019777.831826
3110.0 4627154288.844401
3130.0 4520657611.726665
3150.0 4433036384.010364
3170.0 4331666491.5996065
3190.0 4242170260.7141757
3210.0 4100681880.4942536
3230.0 4063304268.506166
3250.0 3983934198.9900885
3270.0 3864941926.8228545
3290.0 3806068011.2342644
3310.0 3722571965.932408
3330.0 3642949842.7702303
3350.0 3547705846.5430136
3370.0 3488706149.793985
3390.0 3426587986.630058
3410.0 3354092278.289264
3430.0 3293966066.7624617
3450.0 3210470101.08098
3470.0 3160722119.1536517
3490.0 3098352088.385126
3510.0 3038730034.1479497
3530.0 2974234046.4303665
3550.0 2914611932.9583197
3570.0 2860990133.019252
3590.0 2801115846.8502784
3610.0 2740620031.6122637
3630.0 2687998004.3320346
3640.0 2630005873.727502
3650.0 2422281986.840248
3670.0 2379534008.0570965
3690.0 2342407887.8675156
3710.0 2304903995.7133703
3730.0 2296896148.5645576
3750.0 2316643905.5394497
3770.0 2306265960.3793726
3790.0 2323147958.6617284
3810.0 2336777966.7847104
3830.0 2200770195.1266437
3850.0 2288533958.7072687
3870.0 2246407993.1412024
3890.0 2076652020.3489192
3910.0 2192290126.004052
3930.0 2129668025.3601341
3950.0 2100416117.0702443
3970.0 1917534039.7217262
3990.0 2037046192.6341717
4010.0 1997172174.2476525
4030.0 1934424115.8477168
4050.0 1932676024.5168214
4070.0 1886297921.198916
4090.0 1817298207.7724407
4110.0 1710172038.2289827
4130.0 1788928033.8180652
4150.0 1760179941.8568022
4170.0 1737558017.7395854
4190.0 1704683928.3234777
4210.0 1662062036.9546344
4230.0 1653936100.4719098
4250.0 1621062110.3448741
4270.0 1592936087.0541353
4290.0 1567188044.6512878
4310.0 1535188020.4143953
4330.0 1477188100.3815103
4350.0 1402935991.816877
4370.0 1461691898.666833
4390.0 1427817996.9920616
4410.0 1408070109.4922702
4430.0 1392196022.4181483
4450.0 1368322033.5006456
4470.0 1334195947.1652553
4490.0 1325574084.0579476
4510.0 1296574065.2224147
4530.0 1277825951.2632463
4550.0 1245078063.084475
4570.0 1241952031.1677577
4590.0 1219952008.9361827
4610.0 1202204055.7678652
4630.0 1177204023.949239
4650.0 1132078048.2532449
4670.0 1142330025.897367
4690.0 1099959891.7113395
4710.0 1107455961.487471
4730.0 1098708045.307541
4750.0 1081834034.627295
4770.0 1065834036.6527342
4790.0 1048960041.2417965
4810.0 1033010378.9289964
4830.0 1016149007.8507404
4850.0 986397753.7792124
4870.0 922646583.9774927
4890.0 970387631.9193206
4910.0 955975830.2533671
4930.0 936212845.2737902
4950.0 927576606.1339469
4970.0 915327795.202507
4990.0 902078258.6656884
5010.0 883190020.362269
5030.0 874378957.5723132
5050.0 860916810.4031026
5070.0 850130189.5859008
5090.0 837880614.4246045
5110.0 825831008.5687897
5130.0 813681390.8077357
5150.0 801844463.3070837
5170.0 790494806.8966289
5190.0 779257809.0141927
5210.0 768320800.0972154
5230.0 757571239.1490632
5250.0 745496473.7398124
5270.0 734859443.3913293
5290.0 726022440.9025455
5310.0 715860215.1918232
5330.0 705810614.0492771
5350.0 696161025.8163315
5370.0 686498804.8013426
5390.0 676949229.2796586
5410.0 659012961.76152
5430.0 658724848.7935861
5450.0 649675183.3742807
5470.0 640712991.9108785
5490.0 632163423.2353567
5510.0 623013816.5950646
5530.0 615239033.530987
5550.0 606989408.0287724
5570.0 598427166.1367451
5590.0 589077651.5745506
5610.0 583090237.7499686
5630.0 575327983.3885087
5650.0 567678392.9440556
5670.0 560103595.6739944
5690.0 545104435.9429213
5710.0 518046191.9095946
5730.0 511483997.4371113
5750.0 504896624.9259032
5770.0 498921800.4535697
5790.0 493021793.61265653
5810.0 486059625.0824803
5830.0 482571391.9867385
5850.0 479083977.4338527
5870.0 469395820.1146801
5890.0 471133598.32812524
5910.0 467708416.8632401
5930.0 464570610.2911179
5950.0 461920197.64618444
5970.0 458907627.7841828
5990.0 455082416.2051591
6010.0 450232803.42283654
6030.0 444545396.7379156
6050.0 439357993.46084017
6070.0 433608402.3322914
6090.0 428820993.0593201
6110.0 423058802.28865933
6130.0 417984014.1384152
6150.0 413183993.2172928
6170.0 407046998.3124689
6190.0 403534421.68192035
6210.0 398659623.41855955
6230.0 392522583.89291376
6250.0 388897400.9804322
6270.0 384422597.79210985
6290.0 379847813.9298706
6310.0 373510829.717591
6330.0 370885592.30985874
6350.0 366410787.2736477
6370.0 362135987.04025877
6390.0 357848590.49458927
6410.0 351636827.13092864
6430.0 349586405.65995556
6450.0 345211589.4200051
6470.0 341124193.5905681
6490.0 337336817.9405048
6510.0 333362000.38879627
6530.0 327050202.520196
6550.0 322774613.66206527
6570.0 299536816.458875
6590.0 318012404.75780714
6610.0 314762796.6853203
6630.0 311275414.2069254
6650.0 307687986.77856594
6670.0 302287997.107648
6690.0 296963611.2419673
6710.0 296851016.00785
6730.0 293651000.1924983
6750.0 290376199.29566115
6770.0 287488810.6184848
6790.0 284301390.80285144
6810.0 281214020.72353065
6830.0 278039212.35114115
6850.0 274951812.7235485
6870.0 271864407.84306574
6890.0 266527405.3507673
6910.0 265889608.7080495
6930.0 263114821.59447375
6950.0 260227401.4570133
6970.0 257440001.8774308
6990.0 254652602.07964817
7010.0 251765197.9293123
7030.0 248677801.6970705
7050.0 246290395.14989293
7070.0 241777793.77503055
7090.0 241215612.97034577
7110.0 238628199.95574075
7130.0 236053415.0241146
7150.0 233653394.55471262
7170.0 229691209.3524499
7190.0 228003810.09788027
7210.0 226291189.67869157
7230.0 223778619.51442215
7250.0 221516399.70912373
7270.0 219228994.23262435
7290.0 216216409.12038752
7310.0 214641610.98372635
7330.0 212466797.9526412
7350.0 210266794.0161035
7370.0 208079405.3384419
7390.0 205992000.76540318
7410.0 203804608.04556832
7430.0 201804599.43195155
7450.0 199617192.1142905
7470.0 197629793.96809626
7490.0 195242397.51824826
7510.0 193642400.5702124
7530.0 191755003.86969897
7550.0 189767606.35818806
7570.0 187867604.6927515
7590.0 184117998.48235887
7610.0 183992798.7803275
7630.0 182205412.9241688
7650.0 180505406.50930333
7670.0 178718003.51058704
7690.0 176630600.64426842
7710.0 175043199.69866097
7730.0 173143197.54847747
7750.0 171655806.56504357
7770.0 170068408.28968057
7790.0 168381000.56006333
7810.0 166768403.71043408
7830.0 165093603.1602107
7850.0 163306208.581563
7870.0 161893603.32802808
7890.0 160306197.3792243
7910.0 158906200.31283993
7930.0 157318805.0962083
7950.0 155831401.3950223
7970.0 154244008.94012606
7990.0 152843995.8312394
8010.0 151444011.14394993
8030.0 149856599.57062247
8050.0 148569203.32498568
8070.0 147169206.08304635
8090.0 145681809.79420573
8110.0 144281792.19677275
8130.0 142994408.53135034
8150.0 141594402.56939706
8170.0 140307010.1811417
8190.0 138519606.79039353
8210.0 133620404.62231933
8230.0 131733000.01038837
8250.0 131133005.82115324
8270.0 129933001.45531756
8290.0 128845602.94451627
8310.0 127745602.96275501
8330.0 126358202.3272404
8350.0 125145605.54751344
8370.0 124258201.59510133
8390.0 123258199.81284392
8410.0 122258197.69897167
8430.0 121258204.31377396
8450.0 120058196.78005667
8470.0 119258200.92312546
8490.0 118270801.70038496
8510.0 116958208.68917511
8530.0 116558205.91070747
8550.0 115070803.33268632
8570.0 114983393.65545024
8590.0 113158205.76353265
8610.0 112370804.78246447
8630.0 112695997.57015756
8650.0 111358203.3770661
8670.0 108233002.05482315
8690.0 110370800.52245204
8710.0 109883402.18695007
8730.0 108470797.72871643
8750.0 103629218.61195448
8770.0 106370797.57202557
8790.0 106795998.12222973
8810.0 105996002.15967177
8830.0 105095998.70742454
8850.0 102168281.36272223
8870.0 97770641.46306835
8890.0 102103563.10179545
8910.0 101713646.0456172
8930.0 100727501.37632746
8950.0 100022459.0542286
8970.0 99207503.56108043
8990.0 97679942.12658158
9010.0 91934656.66109104
9030.0 93987338.75680724
9050.0 95640101.22667801
9070.0 94778841.48261055
9090.0 94201440.15493965
9110.0 93356566.24186255
9130.0 92731517.98948854
9150.0 91965301.02421726
9170.0 91106556.98068151
9190.0 90291601.50003561
9210.0 88362698.98273207
9230.0 82373718.08759068
9250.0 86944043.13217469
9270.0 87282937.96446282
9290.0 86679238.50150271
9310.0 85879242.07750235
9330.0 85254283.44063374
9350.0 83367041.51614173
9370.0 83553183.38662603
9390.0 83175619.06422134
9410.0 82438142.04370089
9430.0 81791921.4559536
9450.0 81163183.10812175
9470.0 80373181.41799879
9490.0 79830740.68737951
9510.0 78764441.57191263
9530.0 77123096.74874197
9550.0 71984202.92041986
9570.0 76540739.47575173
9590.0 76593337.3450954
9610.0 75995857.82699847
9630.0 75307122.20263048
9650.0 74854682.33263154
9670.0 74267202.08195938
9690.0 73659720.45736857
9710.0 72149644.32550614
9730.0 72373498.52465315
9750.0 71898536.9990515
9770.0 71052401.78842373
9790.0 70793584.14634769
9810.0 70236102.87613851
9830.0 69668621.75551747
9850.0 69139881.89914592
9870.0 68602401.75155775
9890.0 68044919.30392255
9910.0 67484919.69947204
9930.0 67001218.53861572
9950.0 66492482.26168993
9970.0 65965000.4449606
9990.0 65458781.147409335
10025.0 63418702.0147544
10075.0 61603739.143301494
10125.0 61316500.35731859
10175.0 60960200.4364769
10225.0 59803979.356319174
10275.0 58670280.0423397
10325.0 57474060.37854816
10375.0 56521621.06402051
10425.0 55321698.22217084
10475.0 54460441.99677122
10525.0 53455480.78405851
10575.0 52488002.758022
10625.0 51533045.03666814
10675.0 50576822.318597056
10725.0 49691861.420356154
10775.0 48796900.29457796
10825.0 47646899.25618568
10875.0 47063201.145129584
10925.0 44343118.84505197
10975.0 45085719.17373481
11025.0 44563279.63651308
11075.0 43849579.685139105
11125.0 43092100.38952853
11175.0 42355878.83678415
11225.0 41619660.90722306
11275.0 40912182.2743745
11325.0 40205961.40531784
11375.0 39528481.81594542
11425.0 38862259.70937009
11475.0 38204780.67300743
11525.0 37559820.2671937
11575.0 36922340.22260185
11625.0 36081162.03040393
11675.0 35561161.35417239
11725.0 35121163.03860369
11775.0 34543680.28156846
11825.0 33966200.84620645
11875.0 33418722.205722153
11925.0 32881241.12935093
11975.0 32181241.328998737
12025.0 31826281.919234764
12075.0 31308798.674231514
12125.0 30801320.178571824
12175.0 30322582.65027785
12225.0 29845101.356030263
12275.0 29367621.080261514
12325.0 28908880.391925655
12375.0 28452659.753330126
12425.0 28003921.3462242
12475.0 27566439.731683616
12525.0 27117699.347156283
12575.0 26720219.832265347
12625.0 26311479.570268705
12675.0 25913999.563627936
12725.0 25515261.56739251
12775.0 24935260.318506524
12825.0 23684000.793733846
12875.0 24340300.875992797
12925.0 24002819.901917312
12975.0 23584079.900784824
13025.0 23286600.230015345
13075.0 22939121.723924674
13125.0 22600379.640628505
13175.0 22271639.855715882
13225.0 21942899.493393466
13275.0 21615420.860035338
13325.0 21305419.584112458
13375.0 20987939.99781683
13425.0 20679200.920729008
13475.0 20390459.83512957
13525.0 20091720.07844629
13575.0 19804241.05568859
13625.0 19524241.389081698
13675.0 19245500.25724254
13725.0 18966760.497036833
13775.0 18699280.930370066
13825.0 18440539.232401107
13875.0 18181799.574962035
13925.0 17923060.56518642
13975.0 17674320.114889596
14025.0 17425580.453255087
14075.0 17186840.231479738
14125.0 16948100.93013811
14175.0 16718100.175035082
14225.0 16489361.054521386
