wave flux
90.9000015258789 1.0830503854195447e-17
93.5 6.30258577614024e-17
96.0999984741211 3.360771774390973e-16
97.69999694824219 9.054673303062423e-16
99.5999984741211 2.8229191262464762e-15
102.0 1.1238662595072392e-14
103.80000305175781 3.0478772322272664e-14
105.5999984741211 8.008309344520725e-14
107.69999694824219 2.3787079606677177e-13
110.4000015258789 9.107526880770448e-13
114.0 4.958194655541205e-12
117.80000305175781 2.6687706282040294e-11
121.30000305175781 1.1487977024676421e-10
124.80000305175781 4.56420605692471e-10
127.0999984741211 1.0848492279915107e-09
128.39999389648438 1.746014389590499e-09
130.5 3.691791594828508e-09
132.39999389648438 7.127153836054765e-09
133.89999389648438 1.1819648323573848e-08
136.60000610351562 2.8616954552877522e-08
139.8000030517578 7.81472572174727e-08
143.3000030517578 2.2279139977049348e-07
147.1999969482422 6.751350291406727e-07
151.0 1.884437233627951e-06
155.1999969482422 5.5266929352868836e-06
158.8000030517578 1.3295688621699011e-05
162.0 2.811428791686334e-05
166.0 6.89522852681263e-05
170.3000030517578 0.00017244883808352024
173.39999389648438 0.0003258478380238979
176.8000030517578 0.0006387699752763553
180.1999969482422 0.0012189524143963357
181.6999969482422 0.0016143663641785058
186.10000610351562 0.0035570854705013494
191.0 0.00823431157282834
193.89999389648438 0.013263867714345231
198.39999389648438 0.027136995661049296
201.8000030517578 0.045580598955404734
205.0 0.07314271440759264
210.5 0.1599309513378914
216.1999969482422 0.34409782484081847
219.8000030517578 0.550711183150419
223.0 0.8238983726178221
226.8000030517578 1.3176596619857162
230.0 865.6340006652296
234.0 1901.728422432603
240.0 3037.1343160389
246.5 5172.024039797732
252.39999389648438 8504.24771353827
256.79998779296875 11521.995277668208
260.0 20936.784699957105
264.0 36331.11693490727
268.5 54371.802577795155
273.5 74082.84230599679
278.5 92136.48009222369
284.0 195625.23592141364
290.0 280641.6930678822
296.0 367346.0580695655
301.0 594294.4180749279
308.0 1374310.400572729
318.0 3102572.8940201676
328.0 4440139.686133955
338.0 7999584.243253393
348.0 12312836.89897804
357.0 23960854.757708684
366.0 45631883.11064591
375.0 53914718.36297164
385.0 75944764.45060244
395.0 121204358.17609899
405.0 149381128.0438639
414.0 187866519.35910702
422.0 211027909.02067944
430.0 241552924.97558665
441.0 300081615.8654607
451.0 336341193.6059163
460.0 357939200.3521065
470.0 425444029.9885658
480.0 499868809.637199
490.0 540982396.4173775
500.0 653710000.2697197
506.0 1288150889.1776795
512.0 7907732104.531236
520.0 7478572054.177188
530.0 6679136265.181245
540.0 6169703920.879503
550.0 7212235848.81911
560.0 9247692530.354681
570.0 9877424132.62389
580.0 9043852530.848145
590.0 9584799904.148909
600.0 7623591661.845701
610.0 9371847908.849485
620.0 11159399466.167791
630.0 10765964223.489786
640.0 10690651522.881084
650.0 10273851931.879105
658.0 8772624607.182854
665.0 10477632789.941772
675.0 11725968194.849403
685.0 9271352603.342766
695.0 12251768271.35005
705.0 9783728608.81621
716.0 13084764129.086813
726.0 12761584691.838732
735.0 12801120092.341778
745.0 12204455485.61653
755.0 12234107423.699337
765.0 12390604452.760315
775.0 12866707580.60187
785.0 13231256335.392046
795.0 13312788471.356894
805.0 12739444207.905865
815.0 12654200368.013329
825.0 13366244345.468832
835.0 10906651435.46346
845.0 12771043680.088634
855.0 12668816225.70396
865.0 13045824377.634493
875.0 13129885441.230715
885.0 13350695855.874855
895.0 13442436437.648857
905.0 13043316371.234734
915.0 14585080693.506851
925.0 43124159203.50676
935.0 65295359401.98937
945.0 80347440915.02663
955.0 85323359722.25543
965.0 93337124223.28539
975.0 41172801337.156456
985.0 75500359838.46477
995.0 69744644811.62347
1005.0 72767000120.34886
1015.0 75989886621.36728
1025.0 63191558866.32747
1035.0 73343157546.62274
1045.0 83274235091.5381
1055.0 79200324536.66046
1065.0 69717840325.18796
1075.0 71767162522.83595
1085.0 66529198788.505714
1095.0 69992402811.45782
1105.0 67092846717.68268
1115.0 65885598941.95716
1125.0 54996322266.730644
1135.0 63216922994.47676
1145.0 60784439100.020386
1155.0 58221443686.07285
1165.0 56446960110.93141
1175.0 37900600190.493195
1185.0 51324517171.08454
1195.0 50039600459.753296
1205.0 47761598428.366516
1215.0 39267119970.26917
1225.0 46514841568.960785
1235.0 49354840434.076775
1245.0 47377163466.431984
1255.0 47205282374.70943
1265.0 48259476931.92261
1275.0 49286000779.614395
1285.0 49039483487.69591
1295.0 45736838119.03861
1305.0 45479043105.9654
1315.0 47610361494.31627
1325.0 45874561543.43877
1335.0 44406161146.51561
1345.0 44458039085.76405
1355.0 43235161597.04276
1365.0 41817041469.33673
1375.0 40627481716.288025
1385.0 39379799315.82233
1395.0 31734119390.17068
1405.0 32452841465.621826
1415.0 37219360125.94591
1425.0 33606198338.207413
1435.0 35528798589.22988
1442.0 35183158816.59703
1447.0 34948520300.68319
1455.0 33364759295.007755
1465.0 32526203281.693943
1475.0 32667801732.411736
1485.0 32572002160.926567
1495.0 31515920981.062347
1505.0 30645760747.30916
1512.0 29842559206.200127
1517.0 30073000041.443768
1525.0 29060840066.953316
1535.0 25543600975.602406
1545.0 21991039786.29286
1555.0 22000160885.963795
1565.0 24456520997.802395
1575.0 25605360505.070343
1585.0 25694201579.44357
1595.0 25398839200.94664
1605.0 23991319957.060986
1615.0 22958280460.20027
1625.0 23422480127.75899
1635.0 23616399560.22397
1645.0 23384521089.95555
1655.0 23525240577.49439
1665.0 23164519849.94031
1672.0 21465402101.379253
1677.0 24677560996.824715
1685.0 23473360235.42584
1695.0 22642200346.058453
1705.0 22353360451.106487
1715.0 21349160730.596416
1725.0 20636120649.72893
1735.0 21280320606.716633
1745.0 20992641144.63304
1755.0 20654240842.182407
1765.0 20386560360.480534
1775.0 19704240708.45799
1785.0 19905401611.10504
1795.0 19460479677.96833
1805.0 19415120629.13234
1815.0 18801200651.47355
1825.0 18557440218.49699
1835.0 18491640001.98651
1845.0 17497719480.03866
1855.0 17678160048.47812
1865.0 17655119904.727642
1875.0 17307880214.93934
1885.0 16416280301.965057
1895.0 16031200453.059782
1905.0 16425120139.55659
1915.0 15953959677.72055
1925.0 15023240572.163788
1935.0 15803239760.071001
1945.0 15931361118.259987
1955.0 14572520541.73722
1967.0 15159480004.46524
1976.0 15442240921.39415
1984.0 14869480580.392221
1995.0 14467599880.349197
2005.0 14678761559.151764
2015.0 14622239820.3381
2025.0 14581520495.35891
2035.0 13979920725.448606
2045.0 13798040323.68271
2055.0 11446039861.531893
2065.0 11093000909.364342
2074.0 11581840208.290834
2078.0 11436760198.005886
2085.0 12140520259.115622
2095.0 12510801370.317158
2105.0 12698920486.182764
2115.0 12775440087.600788
2125.0 12565879842.879993
2135.0 12442400034.976345
2145.0 12188919867.994102
2155.0 12214719389.137545
2165.0 11766319427.777885
2175.0 11888199735.016413
2185.0 11565160773.860107
2195.0 11691680288.866144
2205.0 11503999882.945673
2215.0 11142120027.193851
2225.0 11146320530.595385
2235.0 10957480144.491549
2245.0 10811655671.772635
2255.0 10506528235.03387
2265.0 10534324657.10136
2275.0 10415600446.267149
2285.0 10188615786.439453
2295.0 9258356373.303858
2305.0 9755764257.067446
2315.0 9715747603.863346
2325.0 9649979888.261694
2335.0 9492211944.819725
2345.0 9386316045.848406
2355.0 9217404363.934204
2365.0 9079376334.671986
2375.0 8902536854.980524
2385.0 8592844210.475191
2395.0 8600479979.218336
2405.0 8563131689.883894
2415.0 8449480676.75087
2425.0 8380176167.622128
2435.0 8229524181.073701
2445.0 8140380546.453932
2455.0 8032467729.111084
2465.0 7924395694.101168
2475.0 7812512167.420598
2485.0 7606064396.840053
2495.0 5963288077.2397995
2505.0 7304688219.936611
2513.0 7065632251.605862
2518.0 7198051929.774345
2525.0 7303428222.684566
2535.0 7242892365.737048
2545.0 7090963481.5577545
2555.0 7014052787.75329
2565.0 6941980018.582403
2575.0 6855256232.121196
2585.0 6774300154.207015
2595.0 6663619975.17851
2605.0 6622272123.577773
2615.0 6500779713.373425
2625.0 6447011900.911938
2635.0 6374476492.146512
2645.0 6273520433.378503
2655.0 6204100254.784434
2665.0 6073752195.227622
2675.0 5956652023.163703
2685.0 5965652039.071383
2695.0 5829840347.230044
2705.0 5781375935.196626
2715.0 5702695917.843696
2725.0 5646739989.093717
2735.0 5519872134.008871
2745.0 5533552459.883335
2755.0 5466944112.77272
2765.0 5375408466.125729
2775.0 5357684189.176669
2785.0 5269495758.796914
2795.0 5113844305.815356
2805.0 5124308107.429328
2815.0 5097467813.855728
2825.0 5020700258.674286
2835.0 4926119851.516059
2845.0 4919744236.196855
2855.0 4848976029.942038
2865.0 4779483760.5951805
2875.0 4729715887.55868
2885.0 4677179661.489185
2895.0 4621643907.232988
2910.0 4520340028.608793
2930.0 4443500180.681188
2950.0 4316312309.891295
2970.0 4227820219.677107
2990.0 4110095958.411883
3010.0 4001328234.6353335
3030.0 3907300279.070318
3050.0 3842995959.0158067
3070.0 3773923872.8302307
3090.0 3659692067.8438234
3110.0 3610315953.4162474
3130.0 3520780044.94046
3150.0 3451591998.711427
3170.0 3371288009.302076
3190.0 3297984040.574688
3210.0 3214724014.287462
3230.0 3158375777.3259573
3250.0 3104072153.712202
3270.0 3019232121.854522
3290.0 2966348088.515243
3310.0 2903276049.837117
3330.0 2835624094.997796
3350.0 2769783991.912681
3370.0 2717899957.800039
3390.0 2676480089.0394673
3410.0 2620944097.297234
3430.0 2568408124.1953406
3450.0 2505104055.225204
3470.0 2461451862.0404267
3490.0 2411800078.504381
3510.0 2367380234.4579573
3530.0 2325076068.6071744
3550.0 2277424061.4502172
3570.0 2237771960.1666255
3590.0 2183119949.208818
3610.0 2140816020.8739336
3630.0 2100164008.6801038
3640.0 2078091958.8527398
3650.0 1984759996.3017366
3670.0 1953339985.743329
3690.0 1915456019.1623924
3710.0 1859107982.2928698
3730.0 1817528130.7536745
3750.0 1838991979.4313812
3770.0 1814760094.1868405
3790.0 1856340088.6343508
3810.0 1888572091.00125
3830.0 1727456208.7168214
3850.0 1871500082.2708523
3870.0 1825732059.631719
3890.0 1633384007.1150696
3910.0 1803544088.06898
3930.0 1749776101.1593626
3950.0 1718124079.0554433
3970.0 1507544059.3147979
3990.0 1672355936.5688064
4010.0 1641936032.4847724
4030.0 1583936066.8207757
4050.0 1591168103.0150976
4070.0 1536052020.1260984
4090.0 1466168123.3071
4110.0 1355400085.2490475
4130.0 1460863955.1064954
4150.0 1442212041.7364857
4170.0 1430327929.059902
4190.0 1403792057.280174
4210.0 1378140068.7933009
4230.0 1362024025.5913935
4250.0 1329024071.939064
4270.0 1300140009.6217363
4290.0 1281140096.474851
4310.0 1250255951.8077128
4330.0 1189256023.6022034
4350.0 1112487963.1949253
4370.0 1192719925.1964834
4390.0 1168183915.9845953
4410.0 1155416014.2097576
4430.0 1145532010.978043
4450.0 1124647957.5913851
4470.0 1088647978.3535135
4490.0 1089995987.9017723
4510.0 1068344001.7756959
4530.0 1055378847.7758867
4550.0 1032703644.3861315
4570.0 1023518003.6343814
4590.0 1004657199.424815
4610.0 987257269.1532667
4630.0 967000855.0305101
4650.0 924306816.513387
4670.0 938109630.3187766
4690.0 916689622.5802646
4710.0 904044409.1967524
4730.0 904683581.6433173
4750.0 889553271.9166243
4770.0 879620005.7451589
4790.0 865801159.8780769
4810.0 851047660.1326765
4830.0 835494024.7049812
4850.0 802259190.6133016
4870.0 737198437.6530379
4890.0 798318831.553946
4910.0 787546395.652225
4930.0 766381176.2570465
4950.0 762385580.840892
4970.0 755224822.8067268
4990.0 743894404.941784
5010.0 722059637.6367408
5030.0 720156782.4293799
5050.0 708114764.5516073
5070.0 701219202.0679076
5090.0 690577186.7068036
5110.0 680335216.6401851
5130.0 669658426.7603273
5150.0 660151196.4139696
5170.0 650855627.6518215
5190.0 642236797.7507514
5210.0 633306455.9146926
5230.0 624352734.0445431
5250.0 614257238.2546717
5270.0 605415237.2855572
5290.0 598350065.8614436
5310.0 589808006.3280611
5330.0 581677646.7628909
5350.0 573624000.9194354
5370.0 565693591.3247317
5390.0 557551600.7665087
5410.0 546360412.2198527
5430.0 542767605.147744
5450.0 535214057.4070467
5470.0 527860416.63468474
5490.0 520718410.62509596
5510.0 513688004.06220967
5530.0 506622804.99283314
5550.0 500180823.2951239
5570.0 493238830.3499802
5590.0 486008409.26107377
5610.0 480420033.5822451
5630.0 474078015.4057959
5650.0 467512805.9982759
5670.0 460636005.71006215
5690.0 449986781.2038082
5710.0 440757996.2123579
5730.0 435392792.8785106
5750.0 429204393.69650555
5770.0 424573983.31617725
5790.0 419008814.9922337
5810.0 413343621.8271307
5830.0 408032019.76776165
5850.0 404331990.10193616
5870.0 392120381.3044594
5890.0 394397217.77276534
5910.0 390720392.520787
5930.0 386408802.8557323
5950.0 382308818.02154446
5970.0 379020414.8495388
5990.0 374497223.4287182
6010.0 370520422.4235755
6030.0 365555203.43631744
6050.0 361278376.43399024
6070.0 356936405.7824666
6090.0 352659609.31499547
6110.0 348194411.010494
6130.0 344029199.99281204
6150.0 339340805.57192254
6170.0 335187197.4293357
6190.0 331610393.0366338
6210.0 327733595.2482539
6230.0 323580023.0859072
6250.0 319591589.88073474
6270.0 315926402.1896892
6290.0 312249590.36389935
6310.0 308107604.9912076
6330.0 304819204.9171659
6350.0 301030805.5509071
6370.0 297665599.83179975
6390.0 294177201.2700203
6410.0 290346803.145852
6430.0 287335196.6232238
6450.0 283858402.90444267
6470.0 280081602.0408178
6490.0 277004802.010464
6510.0 273927996.47789836
6530.0 269874389.42835325
6550.0 263451200.50414237
6570.0 239997606.77708
6590.0 260097609.9323607
6610.0 258544011.7441164
6630.0 255767200.05208272
6650.0 252778807.0133861
6670.0 247925199.9401981
6690.0 244859994.3215568
6710.0 244060000.16714856
6730.0 241071587.07010898
6750.0 238706408.22677502
6770.0 236317992.06191093
6790.0 233206396.1487744
6810.0 231041205.86423504
6830.0 228464416.47335154
6850.0 225987600.30991122
6870.0 223410809.17781335
6890.0 220345614.79200011
6910.0 218234014.27171823
6930.0 216257205.01758137
6950.0 213880393.5080113
6970.0 211591992.78988096
6990.0 209303602.42416677
7010.0 206926795.18530887
7030.0 204450007.19210565
7050.0 202373204.80812427
7070.0 197873197.84217417
7090.0 198284810.1367078
7110.0 195796398.7358373
7130.0 193807998.98677772
7150.0 192031200.75854647
7170.0 189577609.9542564
7190.0 187777605.94821513
7210.0 185977603.34908313
7230.0 182866003.0442839
7250.0 181900810.30118364
7270.0 180224003.11803028
7290.0 177235598.46145836
7310.0 176358798.5711415
7330.0 174570405.48110676
7350.0 172782002.1228307
7370.0 170993601.8093576
7390.0 169293604.40113434
7410.0 167516796.00627828
7430.0 165828406.2055316
7450.0 164051601.4643163
7470.0 162240008.40829626
7490.0 160474806.97754234
7510.0 159086406.38691127
7530.0 157486393.5275227
7550.0 155997997.778501
7570.0 154409596.79994518
7590.0 152356008.18473622
7610.0 151132795.17053905
7630.0 149744402.55484387
7650.0 148256003.6073147
7670.0 146867609.76562145
7690.0 145190795.7807548
7710.0 143890799.56221163
7730.0 142302398.41971055
7750.0 141102396.73594633
7770.0 139713999.11818928
7790.0 138337202.22406194
7810.0 136937205.2379641
7830.0 135648804.96610028
7850.0 134360397.29097447
7870.0 132972000.9061565
7890.0 131672005.3279604
7910.0 130483604.43245733
7930.0 129195203.77925688
7950.0 128095204.20118104
7970.0 126718404.33409692
7990.0 125618402.95935184
8010.0 124330003.08007224
8030.0 123141595.44643934
8050.0 122041608.70559034
8070.0 120853209.02627188
8090.0 119653204.29065731
8110.0 118164803.92447688
8130.0 117476402.6323842
8150.0 116288001.09504902
8170.0 115299604.94397746
8190.0 113899600.41589129
8210.0 112045995.5296843
8230.0 110769194.89440548
8250.0 110169205.46531577
8270.0 108669202.77612922
8290.0 108080799.55450991
8310.0 107192402.34606452
8330.0 106092397.08915357
8350.0 104800526.06899345
8370.0 104106326.9174313
8390.0 103314437.29833281
8410.0 102321400.35030824
8430.0 101423723.05508411
8450.0 100123722.33117005
8470.0 99535326.40738207
8490.0 98645322.22244477
8510.0 97354595.73983425
8530.0 96993445.31020962
8550.0 95371124.06249014
8570.0 95899688.17412682
8590.0 93256922.34879781
8610.0 92783884.3720672
8630.0 93904762.97743247
8650.0 91987800.81281489
8670.0 88097363.14147967
8690.0 91544040.72873424
8710.0 91353326.16928735
8730.0 89437518.0562101
8750.0 83525919.37807657
8770.0 87222165.22488931
8790.0 88528397.94928393
8810.0 87935361.23076244
8830.0 86926522.19495867
8850.0 83299558.70533906
8870.0 78631880.57798426
8890.0 84269281.06785758
8910.0 84218564.13332586
8930.0 83572040.86440507
8950.0 82973645.23721114
8970.0 82173638.93778685
8990.0 80522483.01596303
9010.0 74020164.3283543
9030.0 76587122.19549365
9050.0 79131040.67759864
9070.0 78294522.580075
9090.0 78040322.59722409
9110.0 77578442.7683123
9130.0 76953078.08246793
9150.0 76316565.36845282
9170.0 75510045.09330782
9190.0 74763521.00083393
9210.0 72460038.69174223
9230.0 65972360.302562125
9250.0 71357003.43258357
9270.0 72238598.20324269
9290.0 71884398.02811994
9310.0 71117878.50657426
9330.0 70650198.4422892
9350.0 69834561.04949757
9370.0 69534119.33963744
9390.0 69015283.57916465
9410.0 68401078.35700753
9430.0 67863400.24865064
9450.0 67306883.19230433
9470.0 66528042.15524526
9490.0 66172685.127392374
9510.0 65014998.796062775
9530.0 63091523.18982806
9550.0 57717317.39443376
9570.0 63001960.59174125
9590.0 63400082.970806435
9610.0 62912402.74750198
9630.0 62317039.46411572
9650.0 62101681.36068349
9670.0 61615156.28284086
9690.0 61087482.52082521
9710.0 59773003.46121535
9730.0 60037917.74903421
9750.0 59667921.46614394
9770.0 59192559.63027484
9790.0 58724879.89333463
9810.0 58246044.66309908
9830.0 57810682.664766334
9850.0 57342998.53527594
9870.0 56885318.35168356
9890.0 56397639.285011664
9910.0 55819957.17812272
9930.0 55584597.727039285
9950.0 55148078.716461636
9970.0 54700400.68212438
9990.0 54282719.44537926
10025.0 52053881.36215536
10075.0 50461999.43621672
10125.0 51152881.88652557
10175.0 50569403.12948322
10225.0 49595197.97835126
10275.0 48672162.74428984
10325.0 47627960.58237592
10375.0 46883762.93287214
10425.0 46009562.410954945
10475.0 45165361.26565939
10525.0 44331161.71805911
10575.0 43525803.148564965
10625.0 42731601.378521636
10675.0 41916239.017571874
10725.0 41210880.978915036
10775.0 40466682.08638454
10825.0 39411319.21192537
10875.0 38985961.366188474
10925.0 36147120.95383983
10975.0 37172918.50362939
11025.0 36868719.12139347
11075.0 36353360.059754826
11125.0 35728002.43312319
11175.0 35112641.57206363
11225.0 34496121.49524468
11275.0 33910762.01510461
11325.0 33313079.274944846
11375.0 32757722.513482742
11425.0 32201202.10715898
11475.0 31664680.587496243
11525.0 31138160.59219852
11575.0 30610479.5803096
11625.0 30047438.65172513
11675.0 29559761.96139863
11725.0 29112079.775567416
11775.0 28634400.105678804
11825.0 28157879.64851469
11875.0 27701360.790240534
11925.0 27253680.749620788
11975.0 26605999.465608828
12025.0 26379478.81336102
12075.0 25952960.537701268
12125.0 25535281.356107723
12175.0 25127600.57835855
12225.0 24731079.32302797
12275.0 24342240.638465837
12325.0 23955721.08313835
12375.0 23578041.251629543
12425.0 23210359.958310347
12475.0 22851519.45114525
12525.0 22455000.478585232
12575.0 22137319.354902733
12625.0 21799639.136272334
12675.0 21471959.705793153
12725.0 21144279.945142485
12775.0 20575440.463462964
12825.0 19327760.961938716
12875.0 20130080.24179833
12925.0 19892400.25199545
12975.0 19503560.73629872
13025.0 19295880.481787756
13075.0 19017041.014547464
13125.0 18730520.059682794
13175.0 18451680.195867542
13225.0 18184000.389817927
13275.0 17915160.916720536
13325.0 17656320.367057905
13375.0 17388639.95621172
13425.0 17129800.60063362
13475.0 16892120.498913802
13525.0 16652120.112794606
13575.0 16414439.552144738
13625.0 16175600.219106015
13675.0 15947920.483829523
13725.0 15710240.492501456
13775.0 15501400.157824025
13825.0 15282559.874772146
13875.0 15063720.02794611
13925.0 14844880.248750428
13975.0 14646040.22499708
14025.0 14438361.2500004
14075.0 14248360.008382102
14125.0 14049519.816717695
14175.0 13851839.372439079
14225.0 13662999.982318448
